# Time Pressure
0.000e+00 1.000e+10
1.000e-11 8.769e+11
2.000e-11 2.152e+12
3.000e-11 3.901e+12
4.000e-11 6.131e+12
5.000e-11 8.760e+12
6.000e-11 1.159e+13
7.000e-11 1.434e+13
8.000e-11 1.666e+13
9.000e-11 1.821e+13
1.000e-10 1.876e+13
1.100e-10 1.821e+13
1.200e-10 1.666e+13
1.300e-10 1.434e+13
1.400e-10 1.159e+13
1.500e-10 8.760e+12
1.600e-10 6.131e+12
1.700e-10 3.901e+12
1.800e-10 2.152e+12
1.900e-10 8.769e+11
2.000e-10 1.000e+10
4.400e-09 1.000e+10
